BasePeak(1221points)	RT	Intensity
0	0.305	35438
1	0.838	34902
2	1.468	55614
3	2.047	169
4	2.262	196
5	2.536	37231
6	3.121	35810
7	3.732	48109
8	4.358	49564
9	4.984	34255
10	5.561	248
11	5.823	33439
12	6.420	40806
13	7.008	160
14	7.223	131
15	7.484	34057
16	8.065	37507
17	8.694	36265
18	9.327	44591
19	9.925	40464
20	10.531	42533
21	11.155	64469
22	11.787	50175
23	12.395	54434
24	12.982	56412
25	13.569	51672
26	14.201	56415
27	14.828	59747
28	15.385	199
29	15.647	58770
30	16.226	49560
31	16.802	310
32	17.094	51439
33	17.692	50589
34	18.232	240
35	18.494	49691
36	19.091	50795
37	19.688	50073
38	20.323	54248
39	20.926	52696
40	21.549	71282
41	22.179	51135
42	22.761	240
43	23.043	46439
44	23.614	47299
45	24.243	53020
46	24.876	74527
47	25.501	57754
48	26.131	49350
49	26.760	49322
50	27.392	46571
51	28.019	43324
52	28.648	48036
53	29.277	53281
54	29.862	407
55	30.123	53156
56	30.721	58744
57	31.355	57231
58	31.948	65738
59	32.575	53196
60	33.204	54499
61	33.834	54156
62	34.463	56085
63	35.109	58529
64	35.703	60271
65	36.313	61720
66	36.945	54741
67	37.558	57551
68	38.188	56992
69	38.817	71212
70	39.384	62502
71	40.011	66069
72	40.620	63558
73	41.250	77471
74	41.886	70177
75	42.508	57706
76	43.138	60826
77	43.767	55218
78	44.399	64634
79	45.044	60465
80	45.655	56933
81	46.285	57789
82	46.918	56857
83	47.545	52042
84	48.173	60080
85	48.803	49603
86	49.435	51852
87	50.062	83129
88	50.692	71443
89	51.272	210
90	51.545	81003
91	52.150	65103
92	52.754	55405
93	53.383	88399
94	54.016	65167
95	54.642	53924
96	55.272	54834
97	55.849	187
98	56.117	50301
99	56.715	56161
100	57.344	49283
101	57.973	43682
102	58.607	49889
103	59.233	50420
104	59.862	48101
105	60.492	58639
106	61.128	54446
107	61.751	58232
108	62.337	293
109	62.595	49152
110	63.195	67995
111	63.822	66866
112	64.452	72722
113	65.082	55390
114	65.714	60830
115	66.340	59648
116	66.989	55137
117	67.599	56920
118	68.232	50853
119	68.858	45435
120	69.489	56590
121	70.117	53517
122	70.750	64791
123	71.376	60828
124	71.976	60990
125	72.614	55371
126	73.238	50984
127	73.867	60312
128	74.496	64370
129	75.118	66020
130	75.752	70793
131	76.377	65454
132	77.026	58703
133	77.636	57999
134	78.268	61821
135	78.894	54416
136	79.524	68657
137	80.104	242
138	80.369	73770
139	80.987	73968
140	81.596	67930
141	82.227	83654
142	82.814	318
143	83.095	71968
144	83.692	73730
145	84.323	67805
146	84.956	74510
147	85.581	71062
148	86.211	61809
149	86.841	78461
150	87.473	65293
151	88.050	321
152	88.311	64532
153	88.909	68467
154	89.491	310
155	89.753	59064
156	90.300	308
157	90.561	66297
158	91.160	63538
159	91.791	60415
160	92.418	49906
161	93.054	51358
162	93.628	442
163	93.891	84069
164	94.490	77037
165	95.119	59116
166	95.749	56968
167	96.380	55458
168	97.007	54475
169	97.637	61911
170	98.267	69828
171	98.899	59678
172	99.525	54074
173	100.154	65333
174	100.784	49138
175	101.367	216
176	101.638	61255
177	102.236	72871
178	102.865	61107
179	103.504	74407
180	104.124	56525
181	104.753	69135
182	105.382	60601
183	105.965	358
184	106.227	60443
185	106.825	61126
186	107.454	62548
187	108.089	71021
188	108.712	64248
189	109.342	60417
190	109.972	75677
191	110.606	73324
192	111.231	100574
193	111.860	98121
194	112.492	82504
195	113.060	86237
196	113.618	77081
197	114.196	255
198	114.462	66143
199	115.012	66040
200	115.540	57713
201	116.097	62641
202	116.725	54753
203	117.357	49539
204	117.920	45542
205	118.483	66409
206	119.055	81303
207	119.636	49377
208	120.262	47705
209	120.824	46424
210	121.390	40729
211	121.977	535
212	122.186	148
213	122.404	493
214	122.669	36622
215	123.196	40269
216	123.763	54087
217	124.326	45939
218	124.952	55899
219	125.582	52539
220	126.211	55292
221	126.844	45695
222	127.471	36636
223	128.101	51351
224	128.730	56660
225	129.362	78410
226	129.989	55306
227	130.617	56331
228	131.248	56369
229	131.879	51505
230	132.506	68999
231	133.136	51125
232	133.770	65105
233	134.397	36084
234	134.966	35481
235	135.539	31327
236	136.109	30481
237	136.685	37869
238	137.255	25489
239	137.831	32772
240	138.400	30186
241	138.930	223
242	139.193	33077
243	139.736	27664
244	140.310	26070
245	140.886	24598
246	141.467	23288
247	141.995	163
248	142.212	174
249	142.473	28431
250	142.989	76
251	143.207	318
252	143.468	50901
253	144.071	48131
254	144.645	304
255	144.905	43519
256	145.507	30030
257	146.074	30639
258	146.646	34709
259	147.220	48568
260	147.742	183
261	148.009	42863
262	148.550	62398
263	149.179	76641
264	149.811	54366
265	150.437	34724
266	151.030	47819
267	151.531	200
268	151.798	36150
269	152.345	49735
270	152.870	154
271	153.139	38634
272	153.635	153
273	153.900	33054
274	154.448	33051
275	154.966	249
276	155.230	32087
277	155.720	73
278	155.947	284
279	156.207	49324
280	156.748	58987
281	157.272	227
282	157.535	43351
283	158.084	44733
284	158.651	32168
285	159.224	34161
286	159.743	255
287	160.008	40819
288	160.555	49542
289	161.124	33719
290	161.698	32643
291	162.269	31453
292	162.794	275
293	163.028	156
294	163.289	30642
295	163.827	35186
296	164.405	30046
297	164.994	31063
298	165.544	31118
299	166.116	33097
300	166.689	52383
301	167.262	33182
302	167.831	33721
303	168.406	35062
304	168.998	33019
305	169.559	33568
306	170.133	37405
307	170.713	41815
308	171.288	44329
309	171.864	29584
310	172.378	366
311	172.643	31925
312	173.185	35057
313	173.707	209
314	173.976	35515
315	174.521	38337
316	175.109	36158
317	175.662	34673
318	176.243	40637
319	176.816	33437
320	177.339	200
321	177.603	32621
322	178.147	31029
323	178.724	28614
324	179.297	39767
325	179.870	38329
326	180.394	259
327	180.659	33278
328	181.205	32792
329	181.777	39235
330	182.298	259
331	182.562	39713
332	183.050	47
333	183.321	62757
334	183.920	67756
335	184.504	557
336	184.765	69999
337	185.365	84649
338	185.993	72087
339	186.622	82135
340	187.252	55176
341	187.753	204
342	188.019	60253
343	188.556	48215
344	189.124	52571
345	189.640	438
346	189.903	48125
347	190.389	303
348	190.652	48013
349	191.185	57505
350	191.752	45455
351	192.277	244
352	192.540	45254
353	193.036	247
354	193.299	42557
355	193.842	37480
356	194.370	286
357	194.637	41969
358	195.129	311
359	195.393	45586
360	195.929	79298
361	196.504	55533
362	197.085	48905
363	197.631	40447
364	198.195	46149
365	198.767	46674
366	199.336	49973
367	199.903	42710
368	200.475	59185
369	201.065	50413
370	201.608	42031
371	202.179	49080
372	202.749	48167
373	203.322	55141
374	203.895	43191
375	204.465	48976
376	205.055	50000
377	205.597	53244
378	206.153	48827
379	206.718	54078
380	207.289	42700
381	207.863	46787
382	208.423	46914
383	209.008	45764
384	209.556	56110
385	210.131	42032
386	210.654	254
387	210.918	41469
388	211.466	41629
389	212.037	44623
390	212.562	174
391	212.781	199
392	213.052	61677
393	213.599	45300
394	214.180	35357
395	214.757	38629
396	215.331	36234
397	215.901	41300
398	216.420	272
399	216.681	82160
400	217.231	126
401	217.506	95563
402	218.039	86723
403	218.636	90568
404	219.200	83435
405	219.759	99355
406	220.386	110003
407	221.035	91871
408	221.645	92626
409	222.276	80898
410	222.903	89481
411	223.534	82978
412	224.162	80915
413	224.795	63050
414	225.427	82651
415	226.051	89493
416	226.680	88894
417	227.312	90522
418	227.939	85747
419	228.569	84319
420	229.198	95341
421	229.796	77277
422	230.421	89449
423	231.070	110136
424	231.680	100362
425	232.314	88586
426	232.940	90423
427	233.569	111865
428	234.200	97758
429	234.831	97695
430	235.463	56920
431	236.086	87538
432	236.717	106790
433	237.348	69513
434	237.976	73943
435	238.556	410
436	238.816	100315
437	239.417	92368
438	240.044	99609
439	240.672	100801
440	241.302	110150
441	241.935	101982
442	242.563	71683
443	243.190	52535
444	243.774	49379
445	244.362	50550
446	244.944	48399
447	245.529	57052
448	246.105	49285
449	246.689	53338
450	247.267	45569
451	247.804	102
452	248.023	208
453	248.285	46071
454	248.841	40649
455	249.420	114697
456	249.997	60882
457	250.527	183
458	250.795	48088
459	251.356	46248
460	251.943	49771
461	252.476	169
462	252.749	50290
463	253.299	55787
464	253.873	86766
465	254.502	63091
466	255.076	61104
467	255.656	59530
468	256.181	195
469	256.393	163
470	256.652	44657
471	257.216	44642
472	257.819	40396
473	258.413	38412
474	259.027	45204
475	259.596	39617
476	260.194	36364
477	260.788	39311
478	261.379	39597
479	261.969	44916
480	262.512	160
481	262.726	235
482	262.987	34367
483	263.554	57722
484	264.097	172
485	264.359	36301
486	264.932	39887
487	265.531	39728
488	266.085	184
489	266.345	42919
490	266.859	117
491	267.087	262
492	267.348	50450
493	267.907	62786
494	268.495	84589
495	269.106	57680
496	269.684	50212
497	270.285	55025
498	270.878	51714
499	271.470	55010
500	272.013	205
501	272.228	339
502	272.486	60973
503	273.017	366
504	273.278	130236
505	273.879	111804
506	274.506	107276
507	275.136	90764
508	275.716	220
509	275.978	87445
510	276.582	53635
511	277.157	292
512	277.367	205
513	277.626	47712
514	278.137	167
515	278.351	303
516	278.611	51700
517	279.174	52399
518	279.761	47973
519	280.350	53945
520	280.929	59789
521	281.513	104218
522	282.143	99034
523	282.728	721
524	282.987	63984
525	283.585	118971
526	284.165	103191
527	284.798	93622
528	285.424	98367
529	286.055	114955
530	286.642	338
531	286.865	448
532	287.119	84589
533	287.718	60708
534	288.301	70304
535	288.889	58688
536	289.422	254
537	289.686	58974
538	290.240	49325
539	290.829	51497
540	291.419	94372
541	292.047	85830
542	292.676	57465
543	293.305	46113
544	293.909	44601
545	294.456	88
546	294.729	44169
547	295.287	41535
548	295.885	41124
549	296.437	316
550	296.655	142
551	296.913	57954
552	297.483	49106
553	298.092	46640
554	298.689	43100
555	299.280	42039
556	299.881	37903
557	300.485	36290
558	301.048	92
559	301.322	30168
560	301.843	267
561	302.107	35512
562	302.677	32726
563	303.273	36478
564	303.868	48644
565	304.413	213
566	304.678	45222
567	305.241	40651
568	305.838	34309
569	306.429	42798
570	307.045	34290
571	307.609	39072
572	308.197	36982
573	308.737	212
574	309.031	36214
575	309.541	186
576	309.765	377
577	310.024	47039
578	310.575	41884
579	311.162	34841
580	311.699	300
581	311.967	40026
582	312.518	35957
583	313.112	41630
584	313.703	49644
585	314.249	89
586	314.517	35903
587	315.046	162
588	315.265	250
589	315.530	31405
590	316.089	32001
591	316.681	31648
592	317.286	37566
593	317.873	47882
594	318.473	37941
595	319.092	29545
596	319.628	258
597	319.890	33041
598	320.455	31119
599	321.027	224
600	321.290	25520
601	321.877	25967
602	322.489	41949
603	323.114	30621
604	323.654	209
605	323.917	34331
606	324.438	156
607	324.702	45211
608	325.218	191
609	325.493	37473
610	326.057	38791
611	326.600	185
612	326.815	183
613	327.075	31818
614	327.648	56476
615	328.242	31181
616	328.842	36649
617	329.435	35718
618	330.030	40051
619	330.631	37776
620	331.227	32704
621	331.826	33258
622	332.426	35283
623	332.980	70
624	333.247	28749
625	333.771	151
626	334.030	34907
627	334.549	171
628	334.813	36646
629	335.378	40843
630	335.969	37795
631	336.520	177
632	336.738	400
633	336.994	42751
634	337.517	240
635	337.786	34376
636	338.356	30191
637	338.962	27472
638	339.570	28717
639	340.173	30365
640	340.732	254
641	340.993	27844
642	341.517	145
643	341.781	31556
644	342.351	31304
645	342.959	36650
646	343.563	38505
647	344.159	35848
648	344.766	35635
649	345.365	37921
650	345.963	32946
651	346.513	209
652	346.777	34530
653	347.305	225
654	347.567	28382
655	348.152	36620
656	348.750	35456
657	349.351	64845
658	349.982	67252
659	350.614	60349
660	351.241	61900
661	351.869	62144
662	352.450	346
663	352.712	35531
664	353.273	39476
665	353.811	195
666	354.072	32787
667	354.642	30784
668	355.244	34270
669	355.841	35558
670	356.438	39767
671	357.009	168
672	357.225	283
673	357.439	265
674	357.692	40226
675	358.265	43114
676	358.808	295
677	359.043	237
678	359.304	44109
679	359.826	251
680	360.085	40441
681	360.604	367
682	360.821	265
683	361.085	36957
684	361.656	45069
685	362.202	175
686	362.466	44153
687	362.988	242
688	363.253	39143
689	363.829	40095
690	364.377	231
691	364.642	44954
692	365.207	36771
693	365.757	287
694	366.021	43290
695	366.548	146
696	366.809	41868
697	367.331	251
698	367.595	42730
699	368.176	40226
700	368.782	39042
701	369.380	44357
702	369.983	74996
703	370.593	43858
704	371.199	37166
705	371.808	49337
706	372.405	41067
707	372.963	248
708	373.177	230
709	373.439	38910
710	373.959	206
711	374.221	36403
712	374.744	179
713	374.962	333
714	375.219	54315
715	375.789	41740
716	376.385	46580
717	377.007	40236
718	377.576	39214
719	378.166	38054
720	378.774	38224
721	379.371	34563
722	379.967	44551
723	380.561	46776
724	381.155	47657
725	381.751	48384
726	382.347	42212
727	382.892	178
728	383.155	49046
729	383.723	52868
730	384.314	57108
731	384.900	62238
732	385.447	235
733	385.714	44492
734	386.279	50629
735	386.878	54962
736	387.479	54224
737	388.034	208
738	388.257	107
739	388.519	44970
740	389.119	35569
741	389.704	45832
742	390.312	37717
743	390.906	46499
744	391.506	40558
745	392.110	43705
746	392.721	41161
747	393.276	151
748	393.541	32358
749	394.060	422
750	394.321	52300
751	394.890	50067
752	395.487	41441
753	396.038	173
754	396.300	37938
755	396.874	50986
756	397.467	43004
757	398.067	34630
758	398.669	40808
759	399.221	222
760	399.485	43758
761	400.049	60349
762	400.598	258
763	400.861	50310
764	401.424	68581
765	402.022	43708
766	402.617	48080
767	403.161	260
768	403.436	39509
769	404.002	37530
770	404.548	200
771	404.811	41080
772	405.324	123
773	405.595	40904
774	406.110	256
775	406.381	47690
776	406.944	44310
777	407.542	45307
778	408.133	48720
779	408.726	40679
780	409.327	41846
781	409.915	42613
782	410.459	240
783	410.719	40618
784	411.283	40604
785	411.877	48182
786	412.466	43644
787	413.013	108
788	413.279	39762
789	413.840	32930
790	414.440	39189
791	415.051	38901
792	415.626	40663
793	416.171	179
794	416.433	39617
795	416.998	36741
796	417.596	35859
797	418.195	34578
798	418.799	46881
799	419.348	301
800	419.608	32250
801	420.178	54559
802	420.727	300
803	421.017	41131
804	421.527	408
805	421.787	48751
806	422.296	263
807	422.557	45902
808	423.077	251
809	423.341	49724
810	423.903	48152
811	424.497	51716
812	425.109	43969
813	425.678	48103
814	426.271	40480
815	426.816	220
816	427.099	39811
817	427.660	48202
818	428.207	157
819	428.472	43566
820	429.002	247
821	429.270	47584
822	429.789	386
823	430.050	45931
824	430.611	37514
825	431.153	79
826	431.424	49666
827	431.987	41954
828	432.580	49051
829	433.174	48244
830	433.717	386
831	433.978	52207
832	434.536	50013
833	435.134	50349
834	435.724	52658
835	436.312	49804
836	436.905	50237
837	437.500	48502
838	438.095	41888
839	438.691	40317
840	439.294	34448
841	439.856	298
842	440.129	34977
843	440.694	32117
844	441.294	43643
845	441.890	74497
846	442.523	87213
847	443.150	69291
848	443.779	35838
849	444.408	47338
850	445.028	56162
851	445.595	52225
852	446.180	62372
853	446.764	53937
854	447.351	110412
855	447.888	558
856	448.147	102555
857	448.745	100447
858	449.377	101521
859	450.010	100136
860	450.633	101158
861	451.263	95460
862	451.896	50491
863	452.482	53607
864	453.071	53127
865	453.670	57608
866	454.260	53738
867	454.846	54246
868	455.436	52428
869	456.025	51064
870	456.622	60626
871	457.215	50480
872	457.817	47282
873	458.365	245
874	458.631	40847
875	459.200	52226
876	459.793	53579
877	460.394	61037
878	460.983	57075
879	461.519	305
880	461.778	55594
881	462.338	52709
882	462.938	42535
883	463.544	53924
884	464.139	51384
885	464.735	56025
886	465.292	143
887	465.561	59022
888	466.122	56732
889	466.715	51074
890	467.265	207
891	467.531	52454
892	468.055	189
893	468.316	52980
894	468.885	54717
895	469.481	49180
896	470.073	51561
897	470.631	374
898	470.891	50836
899	471.450	54328
900	472.056	52992
901	472.656	57563
902	473.207	221
903	473.469	65831
904	473.980	345
905	474.243	62383
906	474.802	65832
907	475.347	254
908	475.562	146
909	475.774	242
910	476.026	53387
911	476.596	60590
912	477.140	334
913	477.403	56607
914	477.973	49814
915	478.578	47426
916	479.133	319
917	479.394	40534
918	479.924	382
919	480.185	36371
920	480.769	39371
921	481.370	42408
922	481.983	78503
923	482.614	47833
924	483.206	49008
925	483.752	306
926	484.014	49489
927	484.582	46660
928	485.191	99927
929	485.788	113044
930	486.370	346
931	486.628	53723
932	487.203	61214
933	487.797	52640
934	488.396	49829
935	488.971	210
936	489.190	521
937	489.445	44688
938	490.014	44376
939	490.618	46156
940	491.230	51838
941	491.821	53488
942	492.370	294
943	492.632	53048
944	493.203	57562
945	493.796	59155
946	494.335	73
947	494.605	54789
948	495.164	46636
949	495.718	213
950	495.978	48534
951	496.496	191
952	496.760	52094
953	497.322	46647
954	497.919	41735
955	498.519	41292
956	499.125	39303
957	499.726	38096
958	500.327	41016
959	500.929	44025
960	501.536	69924
961	502.160	73283
962	502.793	73359
963	503.419	126292
964	504.051	41423
965	504.587	371
966	504.852	45945
967	505.365	399
968	505.625	114356
969	506.223	87968
970	506.855	91690
971	507.482	82413
972	508.111	81553
973	508.741	78208
974	509.372	70949
975	509.999	40604
976	510.533	218
977	510.794	62521
978	511.367	38000
979	511.975	36931
980	512.571	34761
981	513.174	46134
982	513.786	67285
983	514.412	69068
984	515.063	71905
985	515.622	213
986	515.883	69592
987	516.481	73597
988	517.111	78677
989	517.740	42958
990	518.336	39465
991	518.881	226
992	519.144	106403
993	519.743	80840
994	520.375	43664
995	520.984	41089
996	521.559	77314
997	522.160	47185
998	522.757	57931
999	523.355	36949
1000	523.955	45169
1001	524.552	53522
1002	525.103	213
1003	525.365	77345
1004	525.963	72269
1005	526.591	68268
1006	527.177	377
1007	527.436	71244
1008	528.035	29448
1009	528.627	45664
1010	529.224	74411
1011	529.822	33503
1012	530.417	66884
1013	531.066	62998
1014	531.679	74846
1015	532.312	68568
1016	532.935	73341
1017	533.566	93729
1018	534.198	78642
1019	534.824	36107
1020	535.360	184
1021	535.624	56425
1022	536.140	191
1023	536.401	71918
1024	537.019	40358
1025	537.581	32103
1026	538.125	415
1027	538.390	69219
1028	538.987	65406
1029	539.617	130844
1030	540.245	70079
1031	540.879	74151
1032	541.458	242
1033	541.671	572
1034	541.925	80635
1035	542.529	79179
1036	543.047	260
1037	543.319	59973
1038	543.868	50151
1039	544.453	87340
1040	545.107	87513
1041	545.714	87233
1042	546.342	81325
1043	546.972	85618
1044	547.604	97588
1045	548.231	88714
1046	548.861	80851
1047	549.491	92703
1048	550.124	87449
1049	550.750	79772
1050	551.379	77997
1051	552.008	91982
1052	552.646	114531
1053	553.268	101932
1054	553.897	101190
1055	554.526	85505
1056	555.158	43045
1057	555.679	236
1058	555.939	44143
1059	556.504	54781
1060	557.102	44906
1061	557.646	141
1062	557.871	204
1063	558.131	45732
1064	558.694	52511
1065	559.293	55436
1066	559.881	44578
1067	560.476	50041
1068	561.069	48015
1069	561.620	220
1070	561.883	46044
1071	562.450	46078
1072	563.067	41959
1073	563.654	48962
1074	564.247	49126
1075	564.792	428
1076	565.002	244
1077	565.258	49103
1078	565.768	268
1079	566.027	93370
1080	566.625	81925
1081	567.254	85085
1082	567.888	81606
1083	568.513	95046
1084	569.096	709
1085	569.353	102144
1086	569.954	145880
1087	570.581	106926
1088	571.211	115149
1089	571.840	60257
1090	572.472	59716
1091	573.053	53113
1092	573.631	53055
1093	574.218	54604
1094	574.811	62043
1095	575.391	61137
1096	575.971	68790
1097	576.554	53539
1098	577.142	60993
1099	577.722	60042
1100	578.304	66509
1101	578.836	207
1102	579.120	110323
1103	579.718	109137
1104	580.347	117300
1105	580.977	50320
1106	581.566	57251
1107	582.098	415
1108	582.359	66111
1109	582.909	62683
1110	583.450	290
1111	583.666	272
1112	583.924	108179
1113	584.486	110064
1114	585.135	110231
1115	585.748	109016
1116	586.374	107233
1117	587.004	103242
1118	587.634	104750
1119	588.266	94792
1120	588.893	80405
1121	589.521	52622
1122	590.106	45282
1123	590.653	86
1124	590.918	78602
1125	591.516	78959
1126	592.146	78914
1127	592.778	83653
1128	593.404	85245
1129	594.040	66366
1130	594.663	80410
1131	595.296	87655
1132	595.923	83091
1133	596.554	88644
1134	597.183	99019
1135	597.815	102263
1136	598.441	93570
1137	599.070	90378
1138	599.700	88779
1139	600.333	90274
